x,y,z,Time,x-velocity,y-velocity,z-velocity,Color
0.1034488454,0.07556120082309,0.06723710583379,0.0,-0.0129759526025287,-2.2670015541709802e-14,6.097375617346059e-13,0.0129759526025287
0.1033839652695869,0.0755612004967006,0.0672371181863746,0.005,-0.0129760811926601,-1.1423624847588917e-07,4.323404177301292e-06,0.0129760993398356
0.1033190844151469,0.0755611995344265,0.0672371546047571,0.01,-0.0129762381595167,-2.511187468562776e-07,9.503880744369702e-06,0.0129762497172796
0.1032542010552356,0.0755611979495917,0.0672372181179476,0.015,-0.0129769973493123,-3.663531059760235e-07,1.51017061152543e-05,0.0129768465170703
0.1031893161226086,0.0755611957745516,0.0672373063670637,0.02,-0.0129769784074561,-4.864992278641228e-07,1.956091102658653e-05,0.0129771122901561
0.1031244208959868,0.0755612048520771,0.0672374184304002,0.025,-0.0129805955120499,3.542008346069634e-06,2.4551484521819085e-05,0.0129793753619204
0.1030595231639175,0.0755612151031721,0.0672375543478467,0.03,-0.0129787595902069,9.313770174480548e-07,2.9157492884505188e-05,0.0129794976132449
0.1029946259516675,0.0755612228358364,0.0672377138926234,0.035,-0.0129799545948663,2.007899732278702e-06,3.3972552181860125e-05,0.012979623337422
0.1029297275611944,0.0755612301040096,0.0672378972080747,0.04,-0.0129794707194363,1.0379358270650188e-06,3.868099381497692e-05,0.0129797525401295
0.1028648289194131,0.0755612357689628,0.0672381042240964,0.045,-0.0129799215838524,1.2042817477844057e-06,4.3444862238015456e-05,0.0129798852186665
0.1027999295009538,0.0755612404602684,0.0672383349646295,0.05,-0.0129798552728723,7.387456322779759e-07,4.817553988643973e-05,0.0129800213732179
0.102735029795078,0.075561242885789,0.0672385887425856,0.055,-0.0129800056018687,2.948730001020419e-07,5.269062974639386e-05,0.0129801908919881
0.1026701286580313,0.0755612452621893,0.0672388668999334,0.06,-0.0129803937649435,6.10585380287776e-07,5.783709942170732e-05,0.0129805160293044
0.1026052259492611,0.0755612480097647,0.0672391697878912,0.065,-0.0129806527458733,5.037123263191737e-07,6.263296064118514e-05,0.0129808449143103
0.1025403217324226,0.0755612508945206,0.0672394972098149,0.07,-0.0129809863340575,6.318803319174544e-07,6.76229528450425e-05,0.0129811775315337
0.1024754159574196,0.0755612540467733,0.0672398492775599,0.075,-0.0129812815005135,6.293782158566774e-07,7.250649610087116e-05,0.0129815138896293
0.1024105086374131,0.0755612573940952,0.0672402259305625,0.08,-0.0129816008768996,6.995289960654792e-07,7.744867882409343e-05,0.0129818539837379
0.1023455997481291,0.0755612609767687,0.0672406271980188,0.085,-0.012981910591736,7.292889645804161e-07,8.23571005845523e-05,0.0129821978160924
0.1022806892909816,0.0755612647725556,0.0672410530773727,0.09,-0.0129822270578093,7.815587083965505e-07,8.72899484412458e-05,0.0129825453863154
0.1022157772500826,0.0755612687937366,0.067241503557404,0.095,-0.0129825440212863,8.212443105241769e-07,9.220054963025104e-05,0.0129828966935139
0.1021508636187345,0.0755612730334733,0.0672419786382581,0.1,-0.0129828629558678,8.679746258928065e-07,9.71278867153946e-05,0.0129832517375491
0.1020859483875183,0.0755612774957062,0.0672424783292893,0.105,-0.0129831837087748,9.108005436169792e-07,0.00010204594588302231,0.0129836105190476
0.1020210315470988,0.0755612821782934,0.0672430026254185,0.11,-0.0129835063652399,9.55805124475487e-07,0.00010696918581214014,0.0129839730375104
0.1019561130880911,0.0755612870824722,0.0672435515296017,0.115,-0.0129838308787641,9.99608723240036e-07,0.0001118895747691764,0.0129843392930482
0.1018911930011358,0.0755612922076026,0.0672441250403113,0.12,-0.0129841572752792,1.0440890925833384e-06,0.00011681156725590114,0.0129847092854672
0.1018262712768609,0.0755612975540873,0.0672447231585224,0.125,-0.0129844855397652,1.0882028225640317e-06,0.00012173269845946808,0.0129842559933795
0.1017613521252169,0.0755613030895016,0.0672453467503826,0.13,-0.0129833389205596,1.1212429007911164e-06,0.00012695762721074308,0.0129844228082216
0.1016964330864277,0.0755613087916002,0.0672459964197988,0.135,-0.0129841593858062,1.1548023039890667e-06,0.0001321660752610363,0.0129845938104125
0.1016315130584009,0.0755613146606951,0.0672466721573085,0.14,-0.0129838902700358,1.1880814921963178e-06,0.00013738357194919415,0.0129847690009273
0.101566592637112,0.0755613206966548,0.067247373967668,0.145,-0.0129842297485549,1.2215247881037143e-06,0.00014259594688297605,0.0129849483788892
0.1015016714751581,0.0755613268995941,0.0672481018477341,0.15,-0.0129842343724459,1.254885181735422e-06,0.0001478110629936569,0.0129851319445277
0.1014367497492427,0.0755613332694912,0.0672488557987855,0.155,-0.0129844282910493,1.2883000926470732e-06,0.00015302457072676663,0.0129853196973778
0.1013718273448955,0.0755613398064011,0.0672496358197546,0.16,-0.0129845203032459,1.3216934065345527e-06,0.00015823891114904372,0.0129855116374314
0.1013069043094137,0.0755613465103347,0.067250441910684,0.165,-0.0129846721912048,1.3551067013852558e-06,0.00016345264192124955,0.0129857077643797
0.1012419806002169,0.0755613533813271,0.0672512740709544,0.17,-0.0129847940754699,1.388517314346846e-06,0.00016866661323973573,0.012985908078046
0.1011770562246607,0.0755613604194013,0.0672521323005251,0.175,-0.012984935888049,1.421937970701065e-06,0.00017388038978043054,0.0129861125782524
0.1011121311623594,0.0755613676245868,0.0672530165990224,0.18,-0.0129850698894269,1.4553614596718705e-06,0.00017909418173562484,0.0129863212647728
0.1010472054083392,0.0755613749969093,0.0672539269662079,0.185,-0.0129852114899975,1.4887917810561712e-06,0.00018430787862333984,0.0129865341374073
0.1009822789490611,0.0755613825363971,0.0672548634018246,0.19,-0.01298535212983,1.5222269171425357e-06,0.00018952155686287065,0.0129867511959506
0.100917351775748,0.0755613902430765,0.0672558259055112,0.195,-0.0129854965622377,1.555667581263838e-06,0.00019473512267442696,0.0129869724402287
0.1008524238769756,0.0755613981169747,0.0672568144770057,0.2,-0.012985642148663,1.5891136897429823e-06,0.00019994868108717652,0.0129871978699972
0.1007874928787329,0.0755614000359809,0.0672578249410724,0.205,-0.0129866177734194,-5.201831035543826e-07,0.0002037009125066323,0.0129879094478749
0.1007225610437102,0.075561401635389,0.0672588610772856,0.21,-0.012986178927884,9.499302007850168e-07,0.000209871990238678,0.0129880613818926
0.1006576291480085,0.0755614049033106,0.0672599242287904,0.215,-0.0129865292996681,4.313248977338958e-07,0.00021469903402907928,0.0129882176985292
0.1005926967435427,0.0755614087347786,0.06726101364834,0.22,-0.0129864445883014,1.017520141375679e-06,0.000220272566818114,0.0129883783336634
0.1005277640623534,0.0755614137432662,0.0672621297501762,0.225,-0.0129866049750033,9.898305591320637e-07,0.0002254312175720117,0.0129885433225102
0.1004628309586196,0.0755614195875072,0.0672632723032651,0.23,-0.0129866325755928,1.3031114234131116e-06,0.00023082016792795525,0.0129908988602395
0.1003978869650714,0.0755614133013458,0.0672644406470223,0.235,-0.0129904233101549,-3.177490062746595e-06,0.0002358051890646796,0.0129913870706572
0.1003329390949048,0.0755614040395916,0.067265634240071,0.24,-0.0129889370756956,-8.584964080020599e-07,0.00024090367526307684,0.0129918792398393
0.100267990270746,0.0755613955798212,0.0672668531456412,0.245,-0.0129903856488202,-2.3170473563846345e-06,0.0002459391931094072,0.0129887125145039
0.1002030569890695,0.075561386400713,0.0672681261037765,0.25,-0.0129838593501279,-1.4749023569306537e-06,0.0002610809525370188,0.01299262444851
0.1001381142793047,0.0755613782645741,0.0672694317161634,0.255,-0.0129920539051186,-1.7414718487269202e-06,0.00026115362101123606,0.012991097940823
0.1000731948440278,0.0755613704613461,0.0672707246069999,0.26,-0.0129777619180607,-1.4250259261110932e-06,0.0002566465770037047,0.0129852857752538
0.1000082854929029,0.0755613629906748,0.0672720453494654,0.265,-0.0129849514551688,-1.545965510888732e-06,0.00026977493017214024,0.0129849438195958
0.0999433742765587,0.0755613556088673,0.0672734037425704,0.27,-0.0129802121290918,-1.4241585024238166e-06,0.0002731063891423723,0.0129846094130815
0.0998784678056972,0.0755613484500447,0.067274794346469,0.275,-0.0129821057046894,-1.4374690128927558e-06,0.0002818815726555637,0.012984282033284
0.099813562379641,0.0755613414384248,0.0672762201876711,0.28,-0.0129803198411301,-1.3759652055517913e-06,0.00028763324124269686,0.012983961972443
0.0997486600263481,0.0755613346148408,0.0672776795889528,0.285,-0.0129805837716591,-1.3562805095532582e-06,0.00029506551764491994,0.0129836490699153
0.0996837595911401,0.0755613279553376,0.067279173486342,0.29,-0.0129797144940536,-1.3136157285190045e-06,0.00030156494799736387,0.0129833434167809
0.0996188616875252,0.0755613214719555,0.0672807013641202,0.295,-0.0129794803946956,-1.283971909517407e-06,0.00030858351139325643,0.0129826464124734
0.0995539679711666,0.0755613105963685,0.0672822607110003,0.3,-0.012978190429484,-2.8434765201558684e-06,0.00031433377447433945,0.0129822294186227
0.0994890775478127,0.0755612984779986,0.0672838537047652,0.305,-0.0129780053517287,-2.108822081190186e-06,0.00032179748688557707,0.0129818196368564
0.0994241897875801,0.0755612863914264,0.0672854813003565,0.31,-0.0129772120676288,-2.6486836903457348e-06,0.0003283103418051566,0.0129814171620086
0.0993593050121946,0.0755612736287742,0.0672871429727026,0.315,-0.0129767623341697,-2.4804155356642544e-06,0.0003353525647673584,0.0129810219437531
0.0992944230146944,0.075561260583541,0.0672888390190393,0.32,-0.0129761273744686,-2.705519955674085e-06,0.0003421017942833459,0.012980634012452
0.0992295438818646,0.0755612470373328,0.0672905692798455,0.325,-0.0129756009595773,-2.712032911452577e-06,0.0003490149364457106,0.0129802533536199
0.0991646675372978,0.0755612331117018,0.0672923338495305,0.33,-0.0129750198786848,-2.8399461439627867e-06,0.0003558381874216688,0.0129798799776969
0.0990997939952195,0.0755612187393448,0.0672941326810676,0.335,-0.0129744748183946,-2.900365337519656e-06,0.000362712397400048,0.0129795138812397
0.0990349232194784,0.0755612039578793,0.0672959658060234,0.34,-0.0129739153955934,-2.9982389334028608e-06,0.0003695594365004052,0.0129791550685036
0.0989700552019399,0.075561188746629,0.0672978332124175,0.345,-0.0129733695917635,-3.075258412818912e-06,0.00037642266055888657,0.0129788035394721
0.098905189918922,0.0755611731173029,0.0672997349126605,0.35,-0.012972821862435,-3.163820298222997e-06,0.00038327808962947927,0.0129784592965095
0.0988403273553917,0.0755611570636157,0.0673016709057552,0.355,-0.0129722808387791,-3.245925313342324e-06,0.0003901390159167724,0.0129781223407027
0.0987754674914658,0.075561140589284,0.0673036411977442,0.36,-0.0129717417449938,-3.3315720943796315e-06,0.0003969979342155003,0.0129777926737545
0.0987106103099408,0.0755611236924676,0.0673056457907842,0.365,-0.0129712072249874,-3.415206676408988e-06,0.000403859113329869,0.0129774702970593
0.098645755792163,0.0755611063744108,0.0673076846894034,0.37,-0.0129706758034862,-3.49991485828658e-06,0.0004107201817437098,0.0129771552121258
0.0985809039203017,0.0755610886346414,0.0673097578970456,0.375,-0.0129701482988333,-3.5839831528114586e-06,0.0004175825384517597,0.0129785354752257
0.0985160535071171,0.0755610711998298,0.0673118671800285,0.38,-0.0129700333904944,-3.4141966947377453e-06,0.0004250621401760872,0.0129757635475222
0.098451216550863,0.075561054595435,0.0673140138076962,0.385,-0.0129654096460654,-3.2508906468308256e-06,0.000432523078553826,0.0129730009551695
0.0983863955339551,0.0755610388178448,0.0673161977670986,0.39,-0.0129632986832184,-3.083988601544994e-06,0.0004399934819523702,0.0129702478133843
0.0983215890381901,0.0755610238690393,0.0673184190607119,0.395,-0.0129597995053424,-2.9190904508346028e-06,0.0004474576531846054,0.0129675040580836
0.0982567978124465,0.0755610097478923,0.0673206776824507,0.4,-0.0129570793812384,-2.7530836300596477e-06,0.00045492436868937823,0.0129647697247246
0.0981920214016624,0.0755609964550037,0.0673229736310073,0.405,-0.0129539342384938,-2.5876982840885577e-06,0.0004623887182850945,0.012962044793544
0.0981272600196614,0.0755609839900147,0.0673253069024368,0.41,-0.0129510330214827,-2.4219724408159352e-06,0.00046985346160303775,0.012959329275352
0.0980625135086186,0.075560972353098,0.0673276774942043,0.415,-0.0129480040988839,-2.256441487690342e-06,0.0004773170224361207,0.0129566231640098
0.0979977819172003,0.0755609615441313,0.0673300854029958,0.42,-0.0129450539222306,-2.0908072649056345e-06,0.0004847803101871736,0.01295392646279
0.0979330651794388,0.0755609515631599,0.0673325306261152,0.425,-0.0129420677748722,-1.9252345416373326e-06,0.0004922428591326889,0.0129512391697227
0.0978683632929849,0.0755609424101331,0.0673350131603817,0.43,-0.0129391094277169,-1.7596334494899911e-06,0.0004997048489499278,0.012948561285717
0.0978036762201949,0.0755609340850558,0.0673375330029901,0.435,-0.0129361434056937,-1.5940519651169537e-06,0.0005071662762172728,0.0129458928101333
0.0977390039430394,0.0755609265879016,0.0673400901509035,0.44,-0.0129331894501505,-1.4284650144847886e-06,0.0005146270625358655,0.0129432337431324
0.0976743464326076,0.0755609199186627,0.0673426846012669,0.445,-0.0129302365635087,-1.2628848542127469e-06,0.0005220873302704511,0.0129405840844389
0.0976097036660338,0.0755609140773202,0.0673453163511113,0.45,-0.0129272908781991,-1.097306200913635e-06,0.0005295469478586095,0.0129379438340364
0.0975450756171807,0.0755609090638659,0.0673479853977156,0.455,-0.0129243489399368,-9.317293664659202e-07,0.0005370061005988913,0.0129353129917132
0.0974804622616941,0.0755609048782841,0.0673506917381445,0.46,-0.0129214127153579,-7.661565839746508e-07,0.0005444645746717722,0.0129326915574052
0.0974158635741402,0.0755609015205584,0.0673534353693731,0.465,-0.0129184811073606,-6.005865770256089e-07,0.0005519224990188724,0.0129299632926061
0.0973512798132645,0.0755609002893033,0.0673562170083518,0.47,-0.012915455475974,1.95006586326313e-08,0.0005596317682696184,0.0129274647498422
0.0972867102420565,0.0755608997736333,0.0673590355753707,0.475,-0.0129127583158233,-1.9511000965049175e-07,0.0005667746304158401,0.0129249753280747
0.0972221546566691,0.075560899509733,0.0673618907537699,0.48,-0.0129098861487266,5.396740913169515e-08,0.0005742314669021323,0.0129224949831343
0.0971576131329809,0.0755608997550339,0.0673647827159788,0.485,-0.0129071186793024,4.5379751728846185e-08,0.0005815131729358766,0.0129200237395588
0.0970930855913978,0.0755609003662586,0.0673677113625192,0.49,-0.0129043005446123,1.7989382521524686e-07,0.0005888914094512168,0.012917561583733
0.0970285584817244,0.0755609014188,0.0673707002802368,0.495,-0.012906262977256,2.334691546375504e-07,0.0006044526440580537,0.0129189976216021
0.0969640368604816,0.0755609031849659,0.0673737384837152,0.5,-0.0129028702020141,4.430562134940262e-07,0.0006100317343948903,0.0129179521129028
0.0968995583208092,0.075560904703142,0.0673768219442032,0.505,-0.012890336233847,1.990694509536815e-07,0.0006216873699970251,0.0129071974519041
0.0968351136452628,0.0755609048821573,0.0673799551725971,0.51,-0.0128878842658507,-8.66467264731781e-08,0.0006303644103745393,0.0129052944027336
0.0967706771240113,0.0755609045423268,0.0673831015111312,0.515,-0.0128868692386375,-5.3955613654518084e-08,0.0006284451791670041,0.0129005438420108
0.0967062640713148,0.0755609040676919,0.0673862833189084,0.52,-0.0128794165148075,-1.2565551897459857e-07,0.0006422988376459033,0.0128958052287837
0.0966418780313038,0.0755609033992872,0.067389509362661,0.525,-0.0128755516177187,-1.397000004862529e-07,0.0006473911851714166,0.012891079971515
0.0965775169787851,0.0755609025681274,0.0673927747819375,0.53,-0.0128697046682683,-1.8613093639148253e-07,0.0006573533579032011,0.0128863672967355
0.0965131865074301,0.0755608894064838,0.0673960743839557,0.535,-0.0128633864730289,-4.46697705945413e-06,0.0006618456879255732,0.0128806466810176
0.0964488814891083,0.0755608747502889,0.0673994144532957,0.54,-0.0128592165578657,-1.7794353844370128e-06,0.0006726400030790715,0.0128761624994149
0.0963846006974221,0.0755608624697578,0.067402798498221,0.545,-0.0128538646717697,-2.9636093625849645e-06,0.000679935721547982,0.0128716920220583
0.0963203447556394,0.075560850414009,0.0674062245837763,0.55,-0.0128491811201016,-1.9968050680619463e-06,0.0006891781531934804,0.0128672350424892
0.0962561132593511,0.0755608397774344,0.0674096937993159,0.555,-0.0128441378608415,-2.225197280704237e-06,0.0006973418239473972,0.0128627916872934
0.0961919063750883,0.0755608298958191,0.0674132055538161,0.56,-0.012839306096334,-1.789667392973561e-06,0.000706107707112879,0.012858361897785
0.0961277239522329,0.0755608211375804,0.0674167601900475,0.5650000000000001,-0.0128343684271433,-1.723132997775329e-06,0.0007145419006882737,0.0128539457183715
0.0960635660163775,0.0755608132974085,0.067420357531948,0.5700000000000001,-0.0128295012290342,-1.4517104155619466e-06,0.0007231632396362785,0.0128495431361472
0.0959994324968269,0.0755608064888055,0.0674239976945413,0.5750000000000001,-0.0128246059209139,-1.294228230354892e-06,0.0007316844779572621,0.012845154170552
0.0959353233739563,0.0755608006480813,0.0674276806269795,0.58,-0.0128197385640416,-1.0735823193123128e-06,0.0007402629948955183,0.0128407788222858
0.0958712385998052,0.0755607958099693,0.0674314063706409,0.585,-0.0128148670298275,-8.881524376509724e-07,0.0007488130353244403,0.0128364171024848
0.0958071781438905,0.0755607919545876,0.0674351749186596,0.59,-0.0128100092977866,-6.832692575324006e-07,0.000757382030061188,0.0128320690170431
0.0957431419651609,0.0755607890923705,0.0674389862895642,0.595,-0.0128051555820124,-4.893240571008034e-07,0.0007659432940338136,0.0128277345744845
0.0956791300268885,0.0755607872168444,0.0674428404850522,0.6,-0.0128003117088174,-2.894411026917328e-07,0.0007745109502822211,0.0128234137814156
0.095615142289498,0.0755607863309108,0.0674467375151951,0.605,-0.0127954743050695,-9.299592306983852e-08,0.0007830773373137545,0.0128191066452979
0.0955511787182223,0.0755607864323932,0.0674506773912802,0.61,-0.0127906442176933,1.0526579746714557e-07,0.0007916486268253932,0.0128148131742187
0.0954872392758264,0.0755607875219498,0.0674546601243996,0.615,-0.0127858216752957,3.0239546257404604e-07,0.0008002201216703623,0.0128105333759235
0.0954233239250802,0.0755607895986063,0.0674586857232856,0.62,-0.0127810065046906,5.000331666987306e-07,0.0008087945188486409,0.0128062672579181
0.0953594326289286,0.0755607926623025,0.0674627541983051,0.625,-0.012776198774556,6.972688146379308e-07,0.0008173703676934775,0.0128020148279179
0.095295585549926,0.0755607963514219,0.0674668656253446,0.63,-0.0127643285699886,7.682401841260817e-07,0.0008259716880386459,0.0127916964530811
0.0952317824414885,0.0755607996487726,0.0674710202127622,0.635,-0.01275784152562,5.778925824161636e-07,0.0008346268301338678,0.012783870742802
0.0951680202619323,0.0755608024094497,0.0674752179884511,0.64,-0.0127483817004573,5.328175533383235e-07,0.0008432513685067541,0.0127760628186034
0.0951043006125428,0.0755608047144229,0.0674794589342048,0.645,-0.0127405910109981,4.071274522742426e-07,0.0008518924874165519,0.0127682728980213
0.0950406225152293,0.0755608065191729,0.0674837430575095,0.65,-0.0127318908014406,3.26316940390335e-07,0.0008605237910948526,0.0127605008633414
0.094976986424769,0.0755608078488979,0.0674880703514489,0.655,-0.0127237135600462,2.206660460317418e-07,0.0008691600354549809,0.0127527467829089
0.0949133920000527,0.075560808690063,0.0674924408172419,0.66,-0.0127152634806702,1.2890823869956625e-07,0.0008777930009809678,0.0127450106219524
0.094849839344063,0.0755608090506285,0.0674968544535917,0.665,-0.0127069819858766,2.951676095086496e-08,0.0008864279716689359,0.0127372924032993
0.0947863283107849,0.0755608089266418,0.0675013112581927,0.67,-0.0126986251579433,-6.553291825165754e-08,0.0008950606315976619,0.0127295921172924
