x,y,z,Time,x-velocity,y-velocity,z-velocity,Color
0.1034488454,0.07457124345465,0.11224336468589,0.0,-0.0094239303357646,4.77400181541648e-14,1.1237607395742088e-11,0.0094239303357646
0.1034017770109967,0.0745712443273653,0.1122435332584379,0.005,-0.0094059883993352,3.0545032879148765e-07,5.9000383355806535e-05,0.0094041981092304
0.1033548061832863,0.0745712468954344,0.1122440293032454,0.01,-0.0093852983991282,6.697364406652268e-07,0.0001293653951061142,0.0093854378570023
0.1033079320255037,0.0745712511885566,0.1122448585570135,0.015,-0.009366981424583,1.0002904659553285e-06,0.00019321477252556756,0.0093676570931849
0.1032611510494485,0.0745712571847821,0.1122460167799294,0.02,-0.0093481055508788,1.348461057702615e-06,0.00026046694114844444,0.0093508480724525
0.1032144612558056,0.074571264890626,0.1122475052304602,0.025,-0.0093303486118384,1.6856995804790666e-06,0.0003256074799242922,0.0093350112872304
0.1031678597773409,0.0745712742963301,0.1122493220236964,0.03,-0.0093127560037835,2.0277217565466368e-06,0.0003916720227526268,0.0093201423405642
0.1031213443238425,0.0745712854024948,0.1122514672756243,0.035,-0.0092958417215936,2.3663663212890936e-06,0.0004570841577090719,0.0093075436363108
0.1030749051696676,0.0745713123514583,0.11225393047025,0.04,-0.0092818226700232,7.657362467720709e-06,0.0005193050006906055,0.009294919333411
0.1030285434424309,0.0745713455808593,0.1122567173909751,0.045,-0.009265237530306,5.887268505420284e-06,0.0005859435032893029,0.0092832429816151
0.1029822590672693,0.0745713811785473,0.112259830322076,0.05,-0.0092506031588401,8.04373942300825e-06,0.0006500682578557406,0.0092725165234392
0.1029356485370477,0.074571423548937,0.1122626370498568,0.055,-0.0093757332084317,8.796831833256949e-06,0.0004948035298578381,0.0093402012936869
0.1028890563420214,0.074571477528756,0.1122656071155707,0.06,-0.0092754683528717,1.2295312796248487e-05,0.0006684203525070574,0.0093241923586365
0.1028426061332763,0.0745715445457461,0.1122689239082729,0.065,-0.0093009717961347,1.423446193454873e-05,0.0006595621813804163,0.0093090171126033
0.1027962263434036,0.0745716236256249,0.1122724867668238,0.07,-0.0092571976083548,1.7002111109568863e-05,0.0007523288567747996,0.0092945282902445
0.1027499538348016,0.0745717151269179,0.1122763528627864,0.075,-0.009252479804418,1.927386924286118e-05,0.0007888869443199113,0.0092808144948235
0.102703765244906,0.0745718186693121,0.1122804917031174,0.08,-0.0092266466101458,2.178443602114033e-05,0.0008569289076380936,0.0092678332496146
0.1026576706613452,0.0745719342827077,0.1122849215205437,0.085,-0.0092131192886494,2.412636145944496e-05,0.000907739418451628,0.0092556148916444
0.102611661592787,0.0745720617699445,0.1122896335009436,0.09,-0.0091933345288972,2.6525761786419343e-05,0.0009683885761418112,0.0092441492781067
0.1025657398664976,0.074572201060196,0.1122946338793207,0.095,-0.0091776033046017,2.8857266685469303e-05,0.0010238409999009,0.0092334487286925
0.1025199015776262,0.0745723520129353,0.1122999205522355,0.1,-0.0091601986265589,3.1190508741237964e-05,0.0010824547702454,0.0092235130499891
0.1024741460048812,0.074572514526738,0.1123054960725424,0.105,-0.0091443014908148,3.3486949374892066e-05,0.001139591029716,0.0092143489647769
0.1024284706582409,0.0745726884789163,0.1123113604299731,0.11,-0.0091281452059994,3.57680503539546e-05,0.0011978318284788,0.0092059593136172
0.1023828740291552,0.0745728737589716,0.1123175150620152,0.115,-0.0091127112754816,3.802198160549768e-05,0.0012557473433921,0.0091983490493473
0.1023373540623105,0.0745730702499662,0.1123239606243164,0.12,-0.0090974549390046,4.025536190539e-05,0.0013141362978665,0.0091915219010999
0.1022919090049136,0.0745732778389046,0.1123306982303348,0.125,-0.0090826788846841,4.2464607017825184e-05,0.0013725598830255,0.0091854822245155
0.1022465369353963,0.074573496411048,0.1123377287647951,0.13,-0.009068215167525,4.4651794917754136e-05,0.0014312671488584,0.0091802339728875
0.1022012360247879,0.0745737258529854,0.1123450532625843,0.135,-0.0090541573373006,4.681583191377645e-05,0.0014901238645763,0.0091757812612603
0.1021560043904631,0.0745739660508472,0.1123526726976073,0.14,-0.0090404540107055,4.895737770525247e-05,0.0015492093596057,0.0091721280481063
0.1021108401768941,0.0745742168912965,0.1123605881014818,0.145,-0.0090271342411389,5.107612397453109e-05,0.001608484336382,0.0091692783098914
0.1020657415124305,0.0745744782611014,0.112368800498655,0.15,-0.0090141818813768,5.3172338745199634e-05,0.0016679757583534,0.0091672359421399
0.1020207065322157,0.0745747500473067,0.1123773109425998,0.155,-0.0090016066641544,5.524591780019395e-05,0.0017276735619115,0.0090964818156644
0.1019760611869862,0.0745746511805911,0.1123861205966221,0.16,-0.0088746658322141,-7.603778883859291e-05,0.0017876237363686,0.0090908951478598
0.1019315674172325,0.0745744752507037,0.1123952526902879,0.165,-0.0089168200396169,-4.547118936791089e-06,0.0018555149807793,0.0090378863936818
0.1018874452389279,0.0745743557263493,0.1124047718174972,0.17,-0.0087551473768977,-3.842318483820259e-05,0.0019400582876557,0.0090024385519747
0.1018435850708212,0.0745741508786462,0.1124147354546845,0.175,-0.0087846983046703,-4.287930746106576e-05,0.0020322292998217,0.0089792749574913
0.1018000017483376,0.0745739782564127,0.1124251199096278,0.18,-0.0086656391407668,-2.8258301163792156e-05,0.002110387255291,0.0089348507968193
0.1017567720222067,0.0745738485947265,0.112435916943944,0.185,-0.0086311747902332,-2.4187864282240107e-05,0.0021961715691947,0.0088927531377101
0.1017138430740653,0.0745737561694835,0.1124471303110811,0.19,-0.0085517507568195,-1.4207936835330728e-05,0.0022775498210902,0.0088529129233597
0.1016712341548597,0.0745737044061525,0.1124587571651547,0.195,-0.0084993086543174,-7.4612132122112465e-06,0.0023612365599289,0.0088153536116946
0.1016289245898028,0.074573691653763,0.1124707984191841,0.2,-0.0084338662791949,1.1325735863953275e-06,0.0024435114903507,0.0087800475950232
0.1015869159791908,0.0745737190877474,0.1124832529720714,0.205,-0.008377614004817,8.752464329350706e-06,0.0025264598928066,0.0087469944476208
0.1015450440148798,0.0745737570655701,0.1124962684655692,0.21,-0.0083719770052294,6.727889712369591e-06,0.002660577804621,0.0087837764872307
0.1015032258319575,0.074573804249518,0.1125099378439034,0.215,-0.0083573812688691,1.1468464483538064e-05,0.0027888490634837,0.0088142863719812
0.1014614588340331,0.0745738645418309,0.1125242627312541,0.22,-0.0083504133219052,1.2500961160517171e-05,0.0029220737751658,0.0088486124953022
0.101419731191989,0.0745739360293171,0.1125392508822642,0.225,-0.0083418647240007,1.5644899297030657e-05,0.0030542975221536,0.0088867760137743
0.1013780361605486,0.0745740200345759,0.112554906888125,0.23,-0.0083368624611063,1.766816608899527e-05,0.0031888789096771,0.0089287879730207
0.101336364130533,0.0745741160874879,0.1125712373529419,0.235,-0.0083325636596424,2.036739466195792e-05,0.003324003503641,0.008974663043934
0.1012947070447166,0.0745742247189405,0.1125882480223135,0.24,-0.0083305572909948,2.2745462414282267e-05,0.0034607316523599,0.0090244117772111
0.1012530559272748,0.0745743459088839,0.112605945370983,0.245,-0.008329973136394,2.5357383383674123e-05,0.0035985232950519,0.0090780450972996
0.1012114022650996,0.0745744799484835,0.1126243357298745,0.25,-0.0083313019090078,2.7895822300384587e-05,0.0037377331407223,0.0091355718847752
0.1011697372314942,0.0745746269613747,0.112643425776018,0.255,-0.0083342853301424,3.053264519684415e-05,0.0038782162946778,0.0091970004969088
0.1011280521239899,0.0745747871695068,0.112663222262625,0.26,-0.0083390736288845,3.317336237188642e-05,0.0040201080914547,0.0092623380492459
0.1010863381088418,0.0745749607457051,0.1126837321716805,0.265,-0.0083456000801644,3.587164760642206e-05,0.0041633871008351,0.0093315909835637
0.1010445430032469,0.0745752810150227,0.1127051543982957,0.27,-0.0083690868981144,8.51905254745981e-05,0.0043752389897096,0.0094347913246205
0.1010026588073579,0.0745756478572031,0.1127273053517788,0.275,-0.0083826533875375,6.45018690429332e-05,0.0044714044768178,0.009515115257453
0.1009606831214936,0.0745760219211291,0.1127501254136019,0.28,-0.0084045000118631,8.254597228721609e-05,0.0046334682804486,0.0095036863589244
0.1009193634633675,0.074576170796331,0.112773721636442,0.285,-0.0081585053352243,-9.803158529646712e-06,0.0047835767837023,0.0095750916134605
0.1008778643014408,0.0745757770406112,0.1127987588214963,0.29,-0.0084058276729285,-0.00013046213302527054,0.0051753321812558,0.0097874648130417
0.1008360722873799,0.0745755211766177,0.1128247499756773,0.295,-0.0083228341666224,8.294202034866893e-06,0.0052154048274121,0.0099022425159237
0.100794048466885,0.0745753874709033,0.1128515603743891,0.3,-0.0084662115482823,-5.301765157664273e-05,0.0054720859285713,0.0100528026193121
0.1007516528313743,0.0745752649319426,0.112879318163525,0.305,-0.0084888137675241,-3.1253975429048323e-06,0.005611161751112,0.010208618694631
0.1007089380811141,0.0745752155006,0.112907966344771,0.31,-0.0085835522654148,-1.495692176738796e-05,0.0058184921227799,0.0103693610562758
0.1006658496765297,0.0745752050723683,0.1129375513606319,0.315,-0.0086432774055029,7.567810223919309e-06,0.0059908864592351,0.0105351968333706
0.1006223925003164,0.0745752529344862,0.1129680626981485,0.32,-0.0087275536205147,1.1075883613376165e-05,0.0061858032864052,0.0107060221263488
0.1005785382281651,0.0745753487425053,0.1129995220456004,0.325,-0.0088033300375564,2.52258939758294e-05,0.0063714191433685,0.0108818912624711
0.1005342767969901,0.0745754986457091,0.1130319337448315,0.33,-0.0088890033831006,3.354670085630824e-05,0.0065655303733528,0.0110627769292878
0.1004895878057689,0.0745756996611524,0.1130653123282791,0.335,-0.0089743943900687,4.519537948432656e-05,0.0067583564266334,0.0113453485394745
0.1004439183817331,0.0745757764979359,0.1130999785197502,0.34,-0.0092535026199989,-7.003660366925098e-06,0.0070643996949014,0.0116096949624374
0.1003973145624372,0.0745758314200165,0.1131357602156577,0.345,-0.0093712097885622,2.4475473488266843e-05,0.0072252937964554,0.0118812776826898
0.1003498432431954,0.0745759111754155,0.1131725955907852,0.35,-0.0095865543931943,9.557784516647372e-06,0.0074734109473018,0.0121596510462788
0.1003014270785242,0.0745759902604064,0.1132105522823778,0.355,-0.0097557418400152,2.0511408452499732e-05,0.0076797838469381,0.0124452775122714
0.1002520680346894,0.0745760833204439,0.1132496269248067,0.36,-0.0099588589621893,1.71874567593835e-05,0.0079162869649028,0.0127275692821583
0.1002018469033242,0.0745761724892767,0.1132899860659317,0.365,-0.0101082517561718,1.831849890616376e-05,0.0081884841700543,0.0130403031488756
0.1001506617410739,0.0745762906807001,0.11333165171532,0.37,-0.0103336179704799,2.762812402025168e-05,0.0084416141583649,0.0133616267045511
0.1000980169404245,0.0745761606121044,0.1133746112567589,0.375,-0.0106754667494217,-6.624510150542235e-05,0.0087046288848532,0.0137994929207526
0.1000445411116656,0.0745762228284044,0.1134186340503201,0.38,-0.0107099400035317,7.145953112485436e-05,0.0088795060828099,0.0140596360125962
0.0999894312048947,0.074576342382351,0.1134639417272118,0.385,-0.011256012367151,-1.1750767001134291e-05,0.0091980573499754,0.0144947087978387
0.0999324053217011,0.0745763530582517,0.113510481074478,0.39,-0.011517049842396,1.2549640474160516e-05,0.0093902285306987,0.0149919905228243
0.0998736028909681,0.0745761725383775,0.1135583453811017,0.395,-0.0119430633747634,-7.259418632209511e-05,0.0097098359202745,0.0153598913189553
0.0998130309715005,0.0745760158284538,0.1136071349441304,0.4,-0.012242874282587,-4.028335388871692e-07,0.0097939701198286,0.0157382555926648
0.0997507272845211,0.0745759722590309,0.113656747674061,0.405,-0.0126241347308524,-1.4947172857557028e-05,0.0100189778858676,0.0161266675413575
0.099686613529118,0.0745759956554388,0.1137072911209666,0.41,-0.0129717133429491,1.939912241172421e-05,0.0101759730025593,0.0165827091190464
0.0996199516220148,0.0745760394062974,0.1137588523882094,0.415,-0.0136028824788981,7.634587048582695e-07,0.0104144637830418,0.0170993891062075
0.0995507068377265,0.074575887294986,0.1138112642713386,0.42,-0.0140335126417524,-5.381155304256347e-05,0.0105333112579564,0.0176232024516185
0.0994790616237748,0.0745758768856137,0.1138642386518279,0.425,-0.0145506904017611,3.671538449980959e-05,0.0106410497277853,0.0180804090290888
0.0994045737615371,0.0745758922918502,0.1139178246508267,0.43,-0.0151577339818697,-2.2144355604656805e-05,0.0107743123537432,0.0186394691502197
0.0993273680845479,0.0745758318626521,0.1139719432809135,0.435,-0.0156536864598151,-4.541952641581377e-06,0.0108607862650751,0.0190777410802434
0.0992475786615941,0.0745756771714105,0.1140262736372076,0.44,-0.0161860331889781,-5.073547006811338e-05,0.010870035004123,0.0196358466031921
0.0991645622940638,0.0745757796132322,0.1140808061020726,0.445,-0.0169162037438704,7.390624016003163e-05,0.010933836449646,0.02016516221686
0.0990779701329765,0.074575978966932,0.1141354460829493,0.45,-0.0176201035726736,1.4344114794121335e-05,0.0109236159696358,0.020767545911703
0.0989879791344232,0.0745760656151285,0.114189874038583,0.455,-0.018281771814128,1.956878267711734e-05,0.0108570724945631,0.0212614678372356
0.0988949089172003,0.0745761702709819,0.1142436731813964,0.46,-0.0188632471674048,2.195296170222717e-05,0.0106868956137606,0.0217331589881503
0.0987984479867105,0.0745762625686957,0.1142967754413524,0.465,-0.0196138902958908,1.5839478558293167e-05,0.0105706192742834,0.0223287388336844
0.0986979879221883,0.074576373388282,0.1143490968214652,0.47,-0.0204506048608208,2.6907246277863136e-05,0.0103845185837681,0.0229384695948602
0.0985938303869596,0.0745763430263136,0.114400279783046,0.475,-0.0211171836844548,-3.080712364656045e-05,0.010125647615471,0.0234356356251526
0.098486237786019,0.0745763121983431,0.1144499731521007,0.48,-0.0218195225658373,1.2315553043164027e-05,0.009798443457548,0.0239686890736704
0.0983751698076584,0.0745762109012245,0.1144978514366158,0.485,-0.0225091505018317,-4.469065629172201e-05,0.0094085669871081,0.0243824203636503
0.0982606050604175,0.0745761819952811,0.1145436065711761,0.49,-0.0232157986579669,2.3400912056087257e-05,0.0089578718557854,0.024915006843708
0.0981425106493895,0.0745761680545821,0.1145869287849533,0.495,-0.0239211948663161,-2.242992868663145e-05,0.0084443709302046,0.0253914220868951
0.0980209299969384,0.0745761890266456,0.1146276568961186,0.5,-0.0246123322081479,2.4162668725157948e-05,0.0079215607101844,0.0258290703029058
0.0978963642717148,0.0745760681871002,0.1146653577388014,0.505,-0.0251387546721308,-6.0415842416713e-05,0.0072541244063599,0.0261739872662632
0.0977688368747657,0.074576145283718,0.1146993830996909,0.51,-0.0257805229280996,7.22956980279797e-05,0.0064682830065406,0.0266232444618435
0.097637976722989,0.0745763569645659,0.1147299856873806,0.515,-0.0264656609257553,1.9866523243231e-05,0.0058596934364909,0.0269849745703696
0.0975051476032027,0.0745762966300951,0.1147567643342163,0.52,-0.026640946230887,-3.6016957217697415e-05,0.0049777563151364,0.0271921926461506
0.0973701869631868,0.0745763661824681,0.1147792359490617,0.525,-0.0272555143323836,5.13560484492503e-05,0.0041317479595329,0.027546741954568
0.0972331129497209,0.0745764478056459,0.1147975360419466,0.53,-0.0275342689637879,-9.948924100373377e-06,0.0033062215400828,0.0277689449309413
0.0970946367955894,0.0745764228815561,0.1148110549036941,0.535,-0.0278159522231906,-1.2617383612883682e-06,0.0022519354565705,0.0278998892234015
0.0969549243639215,0.0745764970991612,0.1148198031519406,0.54,-0.0280373869163798,2.692246558356059e-05,0.0013729352938571,0.0280131600490863
0.0968145063625355,0.074576494028603,0.1148239625653468,0.545,-0.0281182602978242,-2.1266544572674846e-05,0.0004260932217674011,0.028058519280735
0.096673969540495,0.0745765640053258,0.1148230676914963,0.55,-0.0280991924907723,4.04417614022926e-05,-0.0006327757640102752,0.0281498810732371
0.0965329879470316,0.0745766220868282,0.1148175382485453,0.555,-0.028269163344132,-1.000279519380464e-05,-0.0014607232098278,0.0281540399690717
0.0963928493292893,0.0745765205974147,0.114807560205114,0.56,-0.0278466437016971,-2.801919832779796e-05,-0.0023967727935598,0.028019206044088
0.0962535102173921,0.0745766094860002,0.1147927217201446,0.5650000000000001,-0.0278837063877485,5.212540365078645e-05,-0.0033958901441341,0.0279659802496785
0.0961153248589183,0.0745764177819425,0.1147726382343513,0.5700000000000001,-0.0274520956749989,-0.0001061904729271545,-0.0044823024195527,0.0277943419031501
0.0959790677466341,0.0745762501829554,0.1147482603066188,0.5750000000000001,-0.0271009175432121,2.098320922121412e-05,-0.0051705478917033,0.0275795720265425
0.0958445648882441,0.0745762621325413,0.1147197723539456,0.58,-0.0267503122790997,-1.155505184467621e-05,-0.0060928725168314,0.0273565321650447
0.0957124317792485,0.0745761847794132,0.1146873225435315,0.585,-0.0261838539391462,-1.840730592209493e-05,-0.0067877792573112,0.0270222823284508
0.0955831965582148,0.0745763966956558,0.114650869342203,0.59,-0.0255944369074359,8.797616433651275e-05,-0.0076677860219873,0.0267000754403409
0.0954565921738071,0.0745763705611345,0.1146110078316791,0.595,-0.0251157068620903,-7.512920570489892e-05,-0.0082006891668813,0.0263555900016489
0.0953332116046109,0.0745762309402746,0.1145682144948901,0.6,-0.0243464190721279,7.479603300833775e-06,-0.008827151000975,0.0258802094408458
0.0952133142664104,0.0745761660801083,0.114522464061213,0.605,-0.0237042540660661,-2.83107606794135e-05,-0.0093922885362679,0.0254848350873009
0.0950966503368398,0.0745761091215108,0.1144738427962045,0.61,-0.0230541848001659,1.2975613928095551e-06,-0.0099732263507506,0.025078973510044
0.094983438330863,0.0745760570850512,0.1144230172705066,0.615,-0.0223335634917741,-1.9185931919209333e-05,-0.0103090142312104,0.0245636515035404
0.0948738239002862,0.0745761443724586,0.1143703073848663,0.62,-0.0216148780830113,4.494004154133254e-05,-0.0107166993006849,0.024017013545582
0.0947683125863176,0.0745762650629283,0.114316082138099,0.625,-0.0207178013267679,8.536633240598092e-06,-0.0109413118930413,0.0234977225074815
0.0946662701345577,0.0745763339031745,0.1142604971136783,0.63,-0.0201765071208778,1.7691611245435828e-05,-0.0112487746274628,0.0230100128822399
0.0945676340750866,0.0745764393776094,0.1142037191761858,0.635,-0.0193902404742281,2.3647343784505687e-05,-0.0114356971517824,0.0225054660504179
0.0944727750308227,0.0745765316302939,0.1141461396359444,0.64,-0.0186579851366824,1.455293172494594e-05,-0.0115760662206185,0.0219589267548936
0.094381521227922,0.0745764326980525,0.114088048658297,0.645,-0.017945342162738,-4.554098327765938e-05,-0.0116497925111222,0.0213239462287306
0.0942938590457029,0.0745763614077335,0.1140297507265011,0.65,-0.0172227571546382,9.204125819005592e-06,-0.01166693174522,0.0207560984864348
0.094209428687198,0.0745764613030122,0.1139712656235749,0.655,-0.0166335576107025,2.8060253162667437e-05,-0.0117195872152707,0.0203438699315193
0.0941280078153114,0.0745765270230529,0.1139129390827718,0.66,-0.0160221369523093,1.956824375188503e-06,-0.0116245988696112,0.0197286882877514
0.0940498014197464,0.0745764000669845,0.113855250935752,0.665,-0.0153556357335194,-4.590224219082523e-05,-0.0114724023046951,0.0191394426412067
0.0939745589914002,0.074576217574303,0.1137981402570571,0.67,-0.0148181231210195,-2.9445756900597425e-05,-0.0113844358147,0.0186453218289588
0.0939019442171566,0.0745759859394246,0.1137415996257329,0.675,-0.0143015786444954,-5.898788974879334e-05,-0.0112508941024588,0.0180684602707688
0.0938321721635193,0.0745759449959043,0.1136860355162013,0.68,-0.0136940347896925,2.991068518002292e-05,-0.0110092677592266,0.0175885592092069
0.0937648429870122,0.0745759288884138,0.113631325710827,0.685,-0.0132946856851985,-2.8070635545079933e-05,-0.010891481061558,0.0171250706501914
